Symbol: Es
Atomic Number: 99
Atomic Mass: 252.000000
Start Spectral Index: 2
1 11
2 12
End Spectral Index:
Order of Magnitude: 0.000001
Start Spectral Lines:
2 0.269512
2 0.270946
2 0.271682
2 0.272538
2 0.278792
2 0.279693
2 0.288669
1 0.313616
2 0.315518
1 0.342410
1 0.342946
1 0.348559
1 0.349911
1 0.351534
1 0.352450
2 0.354876
1 0.355636
2 0.360346
2 0.367106
2 0.372961
1 0.516318
1 0.520585
1 0.561707
End Spectral Lines:
